 # Stamped by ../build/disorder on 22/09/2025 at 15:35:33
 #../build/disorder -n3lo -yorder 5 -lnlnQorder 4 -CC -toyQ0 2.0 -Qmin 1.0 -x 0.01 -scaleuncert -prefix inclusive_cc_Qmin_1_x_0.01_
 # ----------------------------------------------------------
 # Doing DIS @ n3lo  (e^- + p)
 # Inclusively in radiation
 # Including charged current
 # Including neutral current
 # With γ only
 # xmin, xmax:           0.010000000     0.010000000
 # ymin, ymax:           0.000000000     1.000000000
 # Qmin, Qmax:           1.000000000    30.033314835 GeV
 # Electron energy:     27.500000000 GeV
 # Proton energy:      820.000000000 GeV
 # COM energy:       90200.000000000 GeV^2
  # PDF:             LHA toy PDF initialised at   2.0000000000000000      GeV
 # MZ:                  91.187600000 GeV
 # MW:                  80.398000000 GeV
 # nf:                           5
 # CA:                   3.000000000
 # CF:                   1.333333333
 # TR:                   0.500000000
 # αS(MZ):               0.126001963
 # αS(Qmin):             0.550291107
 #        with 4-loop running
 # With Q as central scale
 # 1/αEM:              137.000000000
 # GF:                   0.112670237E-04 GeV^-2
 # sin(θ_W)^2:           0.222645853
 # ----------------------------------------------------------
# sigcut index   0
 0.00000000E+00 0.10000000E+01 0.45882069E+06 0.44993461E+04


# ptj1 index   1
 0.50000000E+01 0.60000000E+01 0.17796293E+05 0.97027213E+03
 0.60000000E+01 0.70000000E+01 0.12537699E+06 0.25131107E+04
 0.70000000E+01 0.80000000E+01 0.83331074E+05 0.20430081E+04
 0.80000000E+01 0.90000000E+01 0.59855606E+05 0.17146779E+04
 0.90000000E+01 0.10000000E+02 0.43069703E+05 0.14980511E+04
 0.10000000E+02 0.11000000E+02 0.35987486E+05 0.13339567E+04
 0.11000000E+02 0.12000000E+02 0.25900336E+05 0.10042379E+04
 0.12000000E+02 0.13000000E+02 0.20498419E+05 0.96855937E+03
 0.13000000E+02 0.14000000E+02 0.18300149E+05 0.92718705E+03
 0.14000000E+02 0.15000000E+02 0.25471522E+05 0.88381737E+03
 0.15000000E+02 0.16000000E+02 0.32331200E+04 0.28278727E+03
 0.16000000E+02 0.17000000E+02 0.00000000E+00 0.00000000E+00
 0.17000000E+02 0.18000000E+02 0.00000000E+00 0.00000000E+00
 0.18000000E+02 0.19000000E+02 0.00000000E+00 0.00000000E+00
 0.19000000E+02 0.20000000E+02 0.00000000E+00 0.00000000E+00
 0.20000000E+02 0.21000000E+02 0.00000000E+00 0.00000000E+00
 0.21000000E+02 0.22000000E+02 0.00000000E+00 0.00000000E+00
 0.22000000E+02 0.23000000E+02 0.00000000E+00 0.00000000E+00
 0.23000000E+02 0.24000000E+02 0.00000000E+00 0.00000000E+00
 0.24000000E+02 0.25000000E+02 0.00000000E+00 0.00000000E+00
 0.25000000E+02 0.26000000E+02 0.00000000E+00 0.00000000E+00
 0.26000000E+02 0.27000000E+02 0.00000000E+00 0.00000000E+00
 0.27000000E+02 0.28000000E+02 0.00000000E+00 0.00000000E+00
 0.28000000E+02 0.29000000E+02 0.00000000E+00 0.00000000E+00
 0.29000000E+02 0.30000000E+02 0.00000000E+00 0.00000000E+00


# etaj1 index   2
 -.20000000E+01 -.18000000E+01 0.15043480E+04 0.27962790E+03
 -.18000000E+01 -.16000000E+01 0.25415002E+04 0.37101018E+03
 -.16000000E+01 -.14000000E+01 0.49096776E+04 0.53638290E+03
 -.14000000E+01 -.12000000E+01 0.56117649E+04 0.59881794E+03
 -.12000000E+01 -.10000000E+01 0.11374200E+05 0.91211587E+03
 -.10000000E+01 -.80000000E+00 0.15297589E+05 0.11588991E+04
 -.80000000E+00 -.60000000E+00 0.24707878E+05 0.16471443E+04
 -.60000000E+00 -.40000000E+00 0.50542038E+05 0.27008129E+04
 -.40000000E+00 -.20000000E+00 0.65926132E+05 0.36114980E+04
 -.20000000E+00 0.00000000E+00 0.98920891E+05 0.52053915E+04
 0.00000000E+00 0.20000000E+00 0.16807815E+06 0.57853348E+04
 0.20000000E+00 0.40000000E+00 0.26121717E+06 0.81648986E+04
 0.40000000E+00 0.60000000E+00 0.36312813E+06 0.93876128E+04
 0.60000000E+00 0.80000000E+00 0.53279556E+06 0.11610686E+05
 0.80000000E+00 0.10000000E+01 0.68693835E+06 0.13159149E+05
 0.10000000E+01 0.12000000E+01 0.00000000E+00 0.00000000E+00
 0.12000000E+01 0.14000000E+01 0.00000000E+00 0.00000000E+00
 0.14000000E+01 0.16000000E+01 0.00000000E+00 0.00000000E+00
 0.16000000E+01 0.18000000E+01 0.00000000E+00 0.00000000E+00
 0.18000000E+01 0.20000000E+01 0.00000000E+00 0.00000000E+00
 0.20000000E+01 0.22000000E+01 0.00000000E+00 0.00000000E+00
 0.22000000E+01 0.24000000E+01 0.00000000E+00 0.00000000E+00
 0.24000000E+01 0.26000000E+01 0.00000000E+00 0.00000000E+00
 0.26000000E+01 0.28000000E+01 0.00000000E+00 0.00000000E+00
 0.28000000E+01 0.30000000E+01 0.00000000E+00 0.00000000E+00


