 # Stamped by ../../../disorder on  4/09/2023 at 18:43:06
 #../../../disorder -ncall2 10000000 -n3lo -ncall1 1000000 -pdf MSHT20an3lo_as118 -Q 10 -scaleuncert -pdfuncert -NC -noCC -Ehad 920 -Elep 27.6 -mz 91.1876 -mw 80.398 -includeZ -prefix NC_an3lo_Q10_
 # ----------------------------------------------------------
 # Doing DIS @ n3lo  (e^- + p)
 # Inclusively in radiation
 # Including neutral current
 # With γ/Z
 # xmin, xmax:         9.8456206679269054E-004   1.0000000000000000     
 # ymin, ymax:         0.0000000000000000        1.0000000000000000     
 # Q2min, Q2max:       100.00000000000000        100.00000000000000      GeV^2
 # Electron energy:    27.600000000000001      GeV
 # Proton energy:      920.00000000000000      GeV
 # COM energy:         101568.00000000000      GeV^2
 # PDF:             MSHT20an3lo_as118
 # MZ:                 91.187600000000003     
 # MW:                 80.397999999999996     
 # nf:                         5
 # CA:                 3.0000000000000000     
 # CF:                 1.3333333333333333     
 # TR:                0.50000000000000000     
 # αS(MZ):            0.11800072889105703     
 # 1/αEM:              137.00000000000000     
 # GF:                 1.1267023651653377E-005
 # sin(θ_W)^2:        0.22264585341299603     
 # ----------------------------------------------------------
# dsigma/dlogx index   0
 -.69233136E+01 -.66463811E+01 0.18548550E+02 0.25159360E-01
 -.66463811E+01 -.63694485E+01 0.20294065E+02 0.26318963E-01
 -.63694485E+01 -.60925160E+01 0.21685835E+02 0.27193841E-01
 -.60925160E+01 -.58155834E+01 0.22470253E+02 0.27647534E-01
 -.58155834E+01 -.55386509E+01 0.22601867E+02 0.27733232E-01
 -.55386509E+01 -.52617183E+01 0.22140141E+02 0.27444854E-01
 -.52617183E+01 -.49847858E+01 0.21393496E+02 0.27009596E-01
 -.49847858E+01 -.47078533E+01 0.20308923E+02 0.26347549E-01
 -.47078533E+01 -.44309207E+01 0.19159036E+02 0.25619990E-01
 -.44309207E+01 -.41539882E+01 0.17951857E+02 0.24832307E-01
 -.41539882E+01 -.38770556E+01 0.16734261E+02 0.23979733E-01
 -.38770556E+01 -.36001231E+01 0.15543510E+02 0.23154444E-01
 -.36001231E+01 -.33231905E+01 0.14395572E+02 0.22292932E-01
 -.33231905E+01 -.30462580E+01 0.13419361E+02 0.21518178E-01
 -.30462580E+01 -.27693254E+01 0.12476209E+02 0.20765966E-01
 -.27693254E+01 -.24923929E+01 0.11553269E+02 0.19959299E-01
 -.24923929E+01 -.22154604E+01 0.10748057E+02 0.19324819E-01
 -.22154604E+01 -.19385278E+01 0.99207183E+01 0.18497627E-01
 -.19385278E+01 -.16615953E+01 0.90320965E+01 0.17766725E-01
 -.16615953E+01 -.13846627E+01 0.79136433E+01 0.16653894E-01
 -.13846627E+01 -.11077302E+01 0.64363487E+01 0.15446415E-01
 -.11077302E+01 -.83079763E+00 0.45342338E+01 0.12828063E-01
 -.83079763E+00 -.55386509E+00 0.24082731E+01 0.10045773E-01
 -.55386509E+00 -.27693254E+00 0.73251222E+00 0.33019010E-02
 -.27693254E+00 0.00000000E+00 0.59360584E-01 0.35639338E-03


# dsigma/dx index   1
 0.00000000E+00 0.40000000E-01 0.17889806E+04 0.33826276E+00
 0.40000000E-01 0.80000000E-01 0.21415071E+03 0.21990119E+00
 0.80000000E-01 0.12000000E+00 0.10806275E+03 0.15964575E+00
 0.12000000E+00 0.16000000E+00 0.69067283E+02 0.12896869E+00
 0.16000000E+00 0.20000000E+00 0.48846255E+02 0.10875264E+00
 0.20000000E+00 0.24000000E+00 0.36035765E+02 0.93812268E-01
 0.24000000E+00 0.28000000E+00 0.27076287E+02 0.80214984E-01
 0.28000000E+00 0.32000000E+00 0.20758237E+02 0.76165781E-01
 0.32000000E+00 0.36000000E+00 0.15725038E+02 0.63787835E-01
 0.36000000E+00 0.40000000E+00 0.11895609E+02 0.51089397E-01
 0.40000000E+00 0.44000000E+00 0.90337338E+01 0.52949183E-01
 0.44000000E+00 0.48000000E+00 0.65824993E+01 0.47948870E-01
 0.48000000E+00 0.52000000E+00 0.48519939E+01 0.36585139E-01
 0.52000000E+00 0.56000000E+00 0.34482479E+01 0.27042686E-01
 0.56000000E+00 0.60000000E+00 0.23680494E+01 0.19389298E-01
 0.60000000E+00 0.64000000E+00 0.16232904E+01 0.13700369E-01
 0.64000000E+00 0.68000000E+00 0.10355044E+01 0.90710360E-02
 0.68000000E+00 0.72000000E+00 0.64627829E+00 0.58256135E-02
 0.72000000E+00 0.76000000E+00 0.38233731E+00 0.35622438E-02
 0.76000000E+00 0.80000000E+00 0.21829731E+00 0.20752170E-02
 0.80000000E+00 0.84000000E+00 0.11035051E+00 0.10837412E-02
 0.84000000E+00 0.88000000E+00 0.48289628E-01 0.49451961E-03
 0.88000000E+00 0.92000000E+00 0.16755555E-01 0.18034922E-03
 0.92000000E+00 0.96000000E+00 0.36264717E-02 0.42841338E-04
 0.96000000E+00 0.10000000E+01 0.21647060E-03 0.34763525E-05


# dsigma/dlogQ^2 index   2
 0.50000000E+00 0.61846627E+00 0.00000000E+00 0.00000000E+00
 0.61846627E+00 0.73693254E+00 0.00000000E+00 0.00000000E+00
 0.73693254E+00 0.85539882E+00 0.00000000E+00 0.00000000E+00
 0.85539882E+00 0.97386509E+00 0.00000000E+00 0.00000000E+00
 0.97386509E+00 0.10923314E+01 0.00000000E+00 0.00000000E+00
 0.10923314E+01 0.12107976E+01 0.00000000E+00 0.00000000E+00
 0.12107976E+01 0.13292639E+01 0.00000000E+00 0.00000000E+00
 0.13292639E+01 0.14477302E+01 0.00000000E+00 0.00000000E+00
 0.14477302E+01 0.15661965E+01 0.00000000E+00 0.00000000E+00
 0.15661965E+01 0.16846627E+01 0.00000000E+00 0.00000000E+00
 0.16846627E+01 0.18031290E+01 0.00000000E+00 0.00000000E+00
 0.18031290E+01 0.19215953E+01 0.00000000E+00 0.00000000E+00
 0.19215953E+01 0.20400615E+01 0.00000000E+00 0.00000000E+00
 0.20400615E+01 0.21585278E+01 0.00000000E+00 0.00000000E+00
 0.21585278E+01 0.22769941E+01 0.00000000E+00 0.00000000E+00
 0.22769941E+01 0.23954604E+01 0.80055461E+03 0.26801611E-01
 0.23954604E+01 0.25139266E+01 0.00000000E+00 0.00000000E+00
 0.25139266E+01 0.26323929E+01 0.00000000E+00 0.00000000E+00
 0.26323929E+01 0.27508592E+01 0.00000000E+00 0.00000000E+00
 0.27508592E+01 0.28693254E+01 0.00000000E+00 0.00000000E+00
 0.28693254E+01 0.29877917E+01 0.00000000E+00 0.00000000E+00
 0.29877917E+01 0.31062580E+01 0.00000000E+00 0.00000000E+00
 0.31062580E+01 0.32247243E+01 0.00000000E+00 0.00000000E+00
 0.32247243E+01 0.33431905E+01 0.00000000E+00 0.00000000E+00
 0.33431905E+01 0.34616568E+01 0.00000000E+00 0.00000000E+00


# dsigma/dQ^2 index   3
 0.00000000E+00 0.12747894E+01 0.00000000E+00 0.00000000E+00
 0.12747894E+01 0.25495788E+01 0.00000000E+00 0.00000000E+00
 0.25495788E+01 0.38243682E+01 0.00000000E+00 0.00000000E+00
 0.38243682E+01 0.50991576E+01 0.00000000E+00 0.00000000E+00
 0.50991576E+01 0.63739470E+01 0.00000000E+00 0.00000000E+00
 0.63739470E+01 0.76487364E+01 0.00000000E+00 0.00000000E+00
 0.76487364E+01 0.89235258E+01 0.00000000E+00 0.00000000E+00
 0.89235258E+01 0.10198315E+02 0.74395599E+02 0.24906757E-02
 0.10198315E+02 0.11473105E+02 0.00000000E+00 0.00000000E+00
 0.11473105E+02 0.12747894E+02 0.00000000E+00 0.00000000E+00
 0.12747894E+02 0.14022683E+02 0.00000000E+00 0.00000000E+00
 0.14022683E+02 0.15297473E+02 0.00000000E+00 0.00000000E+00
 0.15297473E+02 0.16572262E+02 0.00000000E+00 0.00000000E+00
 0.16572262E+02 0.17847052E+02 0.00000000E+00 0.00000000E+00
 0.17847052E+02 0.19121841E+02 0.00000000E+00 0.00000000E+00
 0.19121841E+02 0.20396630E+02 0.00000000E+00 0.00000000E+00
 0.20396630E+02 0.21671420E+02 0.00000000E+00 0.00000000E+00
 0.21671420E+02 0.22946209E+02 0.00000000E+00 0.00000000E+00
 0.22946209E+02 0.24220998E+02 0.00000000E+00 0.00000000E+00
 0.24220998E+02 0.25495788E+02 0.00000000E+00 0.00000000E+00
 0.25495788E+02 0.26770577E+02 0.00000000E+00 0.00000000E+00
 0.26770577E+02 0.28045367E+02 0.00000000E+00 0.00000000E+00
 0.28045367E+02 0.29320156E+02 0.00000000E+00 0.00000000E+00
 0.29320156E+02 0.30594945E+02 0.00000000E+00 0.00000000E+00
 0.30594945E+02 0.31869735E+02 0.00000000E+00 0.00000000E+00


