 # Stamped by ../../../disorder on  4/09/2023 at 18:42:28
 #../../../disorder -ncall1 1000000 -pdf MSHT20nnlo_as118 -Q 10 -scaleuncert -pdfuncert -NC -noCC -Ehad 920 -Elep 27.6 -mz 91.1876 -mw 80.398 -includeZ -prefix NC_Q10_ -ncall2 10000000 -n3lo
 # ----------------------------------------------------------
 # Doing DIS @ n3lo  (e^- + p)
 # Inclusively in radiation
 # Including neutral current
 # With γ/Z
 # xmin, xmax:         9.8456206679269054E-004   1.0000000000000000     
 # ymin, ymax:         0.0000000000000000        1.0000000000000000     
 # Q2min, Q2max:       100.00000000000000        100.00000000000000      GeV^2
 # Electron energy:    27.600000000000001      GeV
 # Proton energy:      920.00000000000000      GeV
 # COM energy:         101568.00000000000      GeV^2
 # PDF:             MSHT20nnlo_as118
 # MZ:                 91.187600000000003     
 # MW:                 80.397999999999996     
 # nf:                         5
 # CA:                 3.0000000000000000     
 # CF:                 1.3333333333333333     
 # TR:                0.50000000000000000     
 # αS(MZ):            0.11800072760577117     
 # 1/αEM:              137.00000000000000     
 # GF:                 1.1267023651653377E-005
 # sin(θ_W)^2:        0.22264585341299603     
 # ----------------------------------------------------------
# dsigma/dlogx index   0
 -.69233136E+01 -.66463811E+01 0.18019097E+02 0.24482723E-01
 -.66463811E+01 -.63694485E+01 0.19688604E+02 0.25593905E-01
 -.63694485E+01 -.60925160E+01 0.21061686E+02 0.26458810E-01
 -.60925160E+01 -.58155834E+01 0.21837784E+02 0.26909008E-01
 -.58155834E+01 -.55386509E+01 0.21977486E+02 0.26999325E-01
 -.55386509E+01 -.52617183E+01 0.21544398E+02 0.26728394E-01
 -.52617183E+01 -.49847858E+01 0.20848282E+02 0.26321250E-01
 -.49847858E+01 -.47078533E+01 0.19812370E+02 0.25689488E-01
 -.47078533E+01 -.44309207E+01 0.18706214E+02 0.24990425E-01
 -.44309207E+01 -.41539882E+01 0.17541004E+02 0.24233898E-01
 -.41539882E+01 -.38770556E+01 0.16345661E+02 0.23394006E-01
 -.38770556E+01 -.36001231E+01 0.15175665E+02 0.22586954E-01
 -.36001231E+01 -.33231905E+01 0.14050897E+02 0.21743030E-01
 -.33231905E+01 -.30462580E+01 0.13096371E+02 0.20984389E-01
 -.30462580E+01 -.27693254E+01 0.12179220E+02 0.20253694E-01
 -.27693254E+01 -.24923929E+01 0.11289246E+02 0.19481869E-01
 -.24923929E+01 -.22154604E+01 0.10507073E+02 0.18861431E-01
 -.22154604E+01 -.19385278E+01 0.96937217E+01 0.18052721E-01
 -.19385278E+01 -.16615953E+01 0.88168963E+01 0.17326435E-01
 -.16615953E+01 -.13846627E+01 0.77238531E+01 0.16244295E-01
 -.13846627E+01 -.11077302E+01 0.62814979E+01 0.15061377E-01
 -.11077302E+01 -.83079763E+00 0.44248678E+01 0.12493549E-01
 -.83079763E+00 -.55386509E+00 0.23590256E+01 0.98293689E-02
 -.55386509E+00 -.27693254E+00 0.72293994E+00 0.32473559E-02
 -.27693254E+00 0.00000000E+00 0.59144710E-01 0.35416456E-03


# dsigma/dx index   1
 0.00000000E+00 0.40000000E-01 0.17423000E+04 0.32987569E+00
 0.40000000E-01 0.80000000E-01 0.20908509E+03 0.21450428E+00
 0.80000000E-01 0.12000000E+00 0.10563741E+03 0.15581089E+00
 0.12000000E+00 0.16000000E+00 0.67467487E+02 0.12585087E+00
 0.16000000E+00 0.20000000E+00 0.47657090E+02 0.10604645E+00
 0.20000000E+00 0.24000000E+00 0.35200250E+02 0.91525548E-01
 0.24000000E+00 0.28000000E+00 0.26431035E+02 0.78282120E-01
 0.28000000E+00 0.32000000E+00 0.20259344E+02 0.74216432E-01
 0.32000000E+00 0.36000000E+00 0.15320650E+02 0.62196562E-01
 0.36000000E+00 0.40000000E+00 0.11612938E+02 0.49869112E-01
 0.40000000E+00 0.44000000E+00 0.88309087E+01 0.51418866E-01
 0.44000000E+00 0.48000000E+00 0.64329137E+01 0.46834917E-01
 0.48000000E+00 0.52000000E+00 0.47532655E+01 0.35819563E-01
 0.52000000E+00 0.56000000E+00 0.33897074E+01 0.26558908E-01
 0.56000000E+00 0.60000000E+00 0.23295320E+01 0.19058894E-01
 0.60000000E+00 0.64000000E+00 0.15867661E+01 0.13380157E-01
 0.64000000E+00 0.68000000E+00 0.10270951E+01 0.89897400E-02
 0.68000000E+00 0.72000000E+00 0.64701509E+00 0.58246886E-02
 0.72000000E+00 0.76000000E+00 0.38117273E+00 0.35512861E-02
 0.76000000E+00 0.80000000E+00 0.21715208E+00 0.20632645E-02
 0.80000000E+00 0.84000000E+00 0.10948714E+00 0.10747955E-02
 0.84000000E+00 0.88000000E+00 0.48245198E-01 0.49292971E-03
 0.88000000E+00 0.92000000E+00 0.17105770E-01 0.18336589E-03
 0.92000000E+00 0.96000000E+00 0.39821672E-02 0.46382507E-04
 0.96000000E+00 0.10000000E+01 0.28432296E-03 0.44168349E-05


# dsigma/dlogQ^2 index   2
 0.50000000E+00 0.61846627E+00 0.00000000E+00 0.00000000E+00
 0.61846627E+00 0.73693254E+00 0.00000000E+00 0.00000000E+00
 0.73693254E+00 0.85539882E+00 0.00000000E+00 0.00000000E+00
 0.85539882E+00 0.97386509E+00 0.00000000E+00 0.00000000E+00
 0.97386509E+00 0.10923314E+01 0.00000000E+00 0.00000000E+00
 0.10923314E+01 0.12107976E+01 0.00000000E+00 0.00000000E+00
 0.12107976E+01 0.13292639E+01 0.00000000E+00 0.00000000E+00
 0.13292639E+01 0.14477302E+01 0.00000000E+00 0.00000000E+00
 0.14477302E+01 0.15661965E+01 0.00000000E+00 0.00000000E+00
 0.15661965E+01 0.16846627E+01 0.00000000E+00 0.00000000E+00
 0.16846627E+01 0.18031290E+01 0.00000000E+00 0.00000000E+00
 0.18031290E+01 0.19215953E+01 0.00000000E+00 0.00000000E+00
 0.19215953E+01 0.20400615E+01 0.00000000E+00 0.00000000E+00
 0.20400615E+01 0.21585278E+01 0.00000000E+00 0.00000000E+00
 0.21585278E+01 0.22769941E+01 0.00000000E+00 0.00000000E+00
 0.22769941E+01 0.23954604E+01 0.78022070E+03 0.26075392E-01
 0.23954604E+01 0.25139266E+01 0.00000000E+00 0.00000000E+00
 0.25139266E+01 0.26323929E+01 0.00000000E+00 0.00000000E+00
 0.26323929E+01 0.27508592E+01 0.00000000E+00 0.00000000E+00
 0.27508592E+01 0.28693254E+01 0.00000000E+00 0.00000000E+00
 0.28693254E+01 0.29877917E+01 0.00000000E+00 0.00000000E+00
 0.29877917E+01 0.31062580E+01 0.00000000E+00 0.00000000E+00
 0.31062580E+01 0.32247243E+01 0.00000000E+00 0.00000000E+00
 0.32247243E+01 0.33431905E+01 0.00000000E+00 0.00000000E+00
 0.33431905E+01 0.34616568E+01 0.00000000E+00 0.00000000E+00


# dsigma/dQ^2 index   3
 0.00000000E+00 0.12747894E+01 0.00000000E+00 0.00000000E+00
 0.12747894E+01 0.25495788E+01 0.00000000E+00 0.00000000E+00
 0.25495788E+01 0.38243682E+01 0.00000000E+00 0.00000000E+00
 0.38243682E+01 0.50991576E+01 0.00000000E+00 0.00000000E+00
 0.50991576E+01 0.63739470E+01 0.00000000E+00 0.00000000E+00
 0.63739470E+01 0.76487364E+01 0.00000000E+00 0.00000000E+00
 0.76487364E+01 0.89235258E+01 0.00000000E+00 0.00000000E+00
 0.89235258E+01 0.10198315E+02 0.72505968E+02 0.24231881E-02
 0.10198315E+02 0.11473105E+02 0.00000000E+00 0.00000000E+00
 0.11473105E+02 0.12747894E+02 0.00000000E+00 0.00000000E+00
 0.12747894E+02 0.14022683E+02 0.00000000E+00 0.00000000E+00
 0.14022683E+02 0.15297473E+02 0.00000000E+00 0.00000000E+00
 0.15297473E+02 0.16572262E+02 0.00000000E+00 0.00000000E+00
 0.16572262E+02 0.17847052E+02 0.00000000E+00 0.00000000E+00
 0.17847052E+02 0.19121841E+02 0.00000000E+00 0.00000000E+00
 0.19121841E+02 0.20396630E+02 0.00000000E+00 0.00000000E+00
 0.20396630E+02 0.21671420E+02 0.00000000E+00 0.00000000E+00
 0.21671420E+02 0.22946209E+02 0.00000000E+00 0.00000000E+00
 0.22946209E+02 0.24220998E+02 0.00000000E+00 0.00000000E+00
 0.24220998E+02 0.25495788E+02 0.00000000E+00 0.00000000E+00
 0.25495788E+02 0.26770577E+02 0.00000000E+00 0.00000000E+00
 0.26770577E+02 0.28045367E+02 0.00000000E+00 0.00000000E+00
 0.28045367E+02 0.29320156E+02 0.00000000E+00 0.00000000E+00
 0.29320156E+02 0.30594945E+02 0.00000000E+00 0.00000000E+00
 0.30594945E+02 0.31869735E+02 0.00000000E+00 0.00000000E+00


