 # Stamped by ../../../build/disorder on 19/01/2024 at 09:59:40
 #../../../build/disorder -ncall1 1000000 -pdf MSHT20nnlo_as118 -x 0.01 -Qmin 1.64872127070012814684 -scaleuncert -pdfuncert -NC -noCC -Ehad 920 -Elep 27.6 -mz 91.1876 -mw 80.398 -includeZ -prefix NC_x0.01_ -ncall2 100000000 -nnlo
 # ----------------------------------------------------------
 # Doing DIS @ nnlo  (e^- + p)
 # Inclusively in radiation
 # Including neutral current
 # With γ/Z
 # xmin, xmax:           0.0100000     0.0100000
 # ymin, ymax:           0.0000000     1.0000000
 # Qmin, Qmax:           1.6487213    31.8697349 GeV
 # Electron energy:     27.6000000 GeV
 # Proton energy:      920.0000000 GeV
 # COM energy:      101568.0000000 GeV^2
 # PDF:             MSHT20nnlo_as118
 # MZ:                  91.1876000 GeV
 # MW:                  80.3980000 GeV
 # nf:                           5
 # CA:                   3.0000000
 # CF:                   1.3333333
 # TR:                   0.5000000
 # αS(MZ):               0.1180007
 # 1/αEM:              137.0000000
 # GF:                   0.1126702E-04 GeV^-2
 # sin(θ_W)^2:           0.2226459
 # ----------------------------------------------------------
# dsigma/dlogx index   0
 -.69233136E+01 -.66463811E+01 0.00000000E+00 0.00000000E+00
 -.66463811E+01 -.63694485E+01 0.00000000E+00 0.00000000E+00
 -.63694485E+01 -.60925160E+01 0.00000000E+00 0.00000000E+00
 -.60925160E+01 -.58155834E+01 0.00000000E+00 0.00000000E+00
 -.58155834E+01 -.55386509E+01 0.00000000E+00 0.00000000E+00
 -.55386509E+01 -.52617183E+01 0.00000000E+00 0.00000000E+00
 -.52617183E+01 -.49847858E+01 0.00000000E+00 0.00000000E+00
 -.49847858E+01 -.47078533E+01 0.00000000E+00 0.00000000E+00
 -.47078533E+01 -.44309207E+01 0.16849514E+08 0.17531882E+03
 -.44309207E+01 -.41539882E+01 0.00000000E+00 0.00000000E+00
 -.41539882E+01 -.38770556E+01 0.00000000E+00 0.00000000E+00
 -.38770556E+01 -.36001231E+01 0.00000000E+00 0.00000000E+00
 -.36001231E+01 -.33231905E+01 0.00000000E+00 0.00000000E+00
 -.33231905E+01 -.30462580E+01 0.00000000E+00 0.00000000E+00
 -.30462580E+01 -.27693254E+01 0.00000000E+00 0.00000000E+00
 -.27693254E+01 -.24923929E+01 0.00000000E+00 0.00000000E+00
 -.24923929E+01 -.22154604E+01 0.00000000E+00 0.00000000E+00
 -.22154604E+01 -.19385278E+01 0.00000000E+00 0.00000000E+00
 -.19385278E+01 -.16615953E+01 0.00000000E+00 0.00000000E+00
 -.16615953E+01 -.13846627E+01 0.00000000E+00 0.00000000E+00
 -.13846627E+01 -.11077302E+01 0.00000000E+00 0.00000000E+00
 -.11077302E+01 -.83079763E+00 0.00000000E+00 0.00000000E+00
 -.83079763E+00 -.55386509E+00 0.00000000E+00 0.00000000E+00
 -.55386509E+00 -.27693254E+00 0.00000000E+00 0.00000000E+00
 -.27693254E+00 0.00000000E+00 0.00000000E+00 0.00000000E+00


# dsigma/dx index   1
 0.00000000E+00 0.40000000E-01 0.11665447E+09 0.12137872E+04
 0.40000000E-01 0.80000000E-01 0.00000000E+00 0.00000000E+00
 0.80000000E-01 0.12000000E+00 0.00000000E+00 0.00000000E+00
 0.12000000E+00 0.16000000E+00 0.00000000E+00 0.00000000E+00
 0.16000000E+00 0.20000000E+00 0.00000000E+00 0.00000000E+00
 0.20000000E+00 0.24000000E+00 0.00000000E+00 0.00000000E+00
 0.24000000E+00 0.28000000E+00 0.00000000E+00 0.00000000E+00
 0.28000000E+00 0.32000000E+00 0.00000000E+00 0.00000000E+00
 0.32000000E+00 0.36000000E+00 0.00000000E+00 0.00000000E+00
 0.36000000E+00 0.40000000E+00 0.00000000E+00 0.00000000E+00
 0.40000000E+00 0.44000000E+00 0.00000000E+00 0.00000000E+00
 0.44000000E+00 0.48000000E+00 0.00000000E+00 0.00000000E+00
 0.48000000E+00 0.52000000E+00 0.00000000E+00 0.00000000E+00
 0.52000000E+00 0.56000000E+00 0.00000000E+00 0.00000000E+00
 0.56000000E+00 0.60000000E+00 0.00000000E+00 0.00000000E+00
 0.60000000E+00 0.64000000E+00 0.00000000E+00 0.00000000E+00
 0.64000000E+00 0.68000000E+00 0.00000000E+00 0.00000000E+00
 0.68000000E+00 0.72000000E+00 0.00000000E+00 0.00000000E+00
 0.72000000E+00 0.76000000E+00 0.00000000E+00 0.00000000E+00
 0.76000000E+00 0.80000000E+00 0.00000000E+00 0.00000000E+00
 0.80000000E+00 0.84000000E+00 0.00000000E+00 0.00000000E+00
 0.84000000E+00 0.88000000E+00 0.00000000E+00 0.00000000E+00
 0.88000000E+00 0.92000000E+00 0.00000000E+00 0.00000000E+00
 0.92000000E+00 0.96000000E+00 0.00000000E+00 0.00000000E+00
 0.96000000E+00 0.10000000E+01 0.00000000E+00 0.00000000E+00


# dsigma/dlogQ^2 index   2
 0.50000000E+00 0.61846627E+00 0.65344064E+07 0.17568513E+04
 0.61846627E+00 0.73693254E+00 0.56270240E+07 0.16497089E+04
 0.73693254E+00 0.85539882E+00 0.47892849E+07 0.15394585E+04
 0.85539882E+00 0.97386509E+00 0.40430192E+07 0.14290227E+04
 0.97386509E+00 0.10923314E+01 0.33888906E+07 0.13187051E+04
 0.10923314E+01 0.12107976E+01 0.28199969E+07 0.12100629E+04
 0.12107976E+01 0.13292639E+01 0.23354283E+07 0.11060029E+04
 0.13292639E+01 0.14477302E+01 0.19240260E+07 0.10058746E+04
 0.14477302E+01 0.15661965E+01 0.15779948E+07 0.91410655E+03
 0.15661965E+01 0.16846627E+01 0.12923316E+07 0.82696019E+03
 0.16846627E+01 0.18031290E+01 0.10554569E+07 0.74491052E+03
 0.18031290E+01 0.19215953E+01 0.85976658E+06 0.67329074E+03
 0.19215953E+01 0.20400615E+01 0.69512100E+06 0.59901928E+03
 0.20400615E+01 0.21585278E+01 0.55935545E+06 0.52327165E+03
 0.21585278E+01 0.22769941E+01 0.44676826E+06 0.49456226E+03
 0.22769941E+01 0.23954604E+01 0.35568593E+06 0.41709254E+03
 0.23954604E+01 0.25139266E+01 0.28033465E+06 0.40060320E+03
 0.25139266E+01 0.26323929E+01 0.21890386E+06 0.31298490E+03
 0.26323929E+01 0.27508592E+01 0.16944453E+06 0.27326585E+03
 0.27508592E+01 0.28693254E+01 0.12965990E+06 0.27156494E+03
 0.28693254E+01 0.29877917E+01 0.97344172E+05 0.20408245E+03
 0.29877917E+01 0.31062580E+01 0.71780427E+05 0.15071274E+03
 0.31062580E+01 0.32247243E+01 0.52046845E+05 0.10937205E+03
 0.32247243E+01 0.33431905E+01 0.37239864E+05 0.78335003E+02
 0.33431905E+01 0.34616568E+01 0.26936969E+05 0.56596354E+02


# dsigma/dQ^2 index   3
 0.00000000E+00 0.12747894E+01 0.00000000E+00 0.00000000E+00
 0.12747894E+01 0.25495788E+01 0.18377022E+07 0.22121080E+03
 0.25495788E+01 0.38243682E+01 0.92723449E+06 0.19006711E+03
 0.38243682E+01 0.50991576E+01 0.37222080E+06 0.13098217E+03
 0.50991576E+01 0.63739470E+01 0.18664896E+06 0.94534244E+02
 0.63739470E+01 0.76487364E+01 0.10658260E+06 0.71307487E+02
 0.76487364E+01 0.89235258E+01 0.66176725E+05 0.55821505E+02
 0.89235258E+01 0.10198315E+02 0.43551205E+05 0.45464340E+02
 0.10198315E+02 0.11473105E+02 0.30075059E+05 0.38956604E+02
 0.11473105E+02 0.12747894E+02 0.21391975E+05 0.32435296E+02
 0.12747894E+02 0.14022683E+02 0.15697029E+05 0.25000628E+02
 0.14022683E+02 0.15297473E+02 0.11731450E+05 0.20728741E+02
 0.15297473E+02 0.16572262E+02 0.89635930E+04 0.22821520E+02
 0.16572262E+02 0.17847052E+02 0.69396968E+04 0.18346793E+02
 0.17847052E+02 0.19121841E+02 0.54154639E+04 0.14859914E+02
 0.19121841E+02 0.20396630E+02 0.42978247E+04 0.12172201E+02
 0.20396630E+02 0.21671420E+02 0.34091752E+04 0.99962359E+01
 0.21671420E+02 0.22946209E+02 0.27558258E+04 0.83059649E+01
 0.22946209E+02 0.24220998E+02 0.22346815E+04 0.69300464E+01
 0.24220998E+02 0.25495788E+02 0.18266774E+04 0.58203160E+01
 0.25495788E+02 0.26770577E+02 0.15047083E+04 0.49205766E+01
 0.26770577E+02 0.28045367E+02 0.12552996E+04 0.42016875E+01
 0.28045367E+02 0.29320156E+02 0.10576037E+04 0.36196613E+01
 0.29320156E+02 0.30594945E+02 0.90410998E+03 0.31565966E+01
 0.30594945E+02 0.31869735E+02 0.77564030E+03 0.27732339E+01


